"Time (s)","Linear Acceleration x (m/s^2)","Linear Acceleration y (m/s^2)","Linear Acceleration z (m/s^2)","Absolute acceleration (m/s^2)"
-1.955958331E-3,3.222899752E-1,4.320367312E-1,-2.542977476E-1,5.959814676E-1
8.048041665E-3,2.914421485E-1,5.811734748E-1,-4.410928988E-1,7.856615551E-1
1.805304167E-2,2.590480073E-1,6.101768339E-1,-4.329787177E-1,7.917652485E-1
2.805704167E-2,2.133747298E-1,5.835807735E-1,-3.960517967E-1,7.368529841E-1
3.806104167E-2,1.782677547E-1,5.311400199E-1,-2.846570760E-1,6.284256233E-1
4.806504167E-2,1.785098294E-1,5.304909790E-1,-2.842167807E-1,6.277464587E-1
5.806904167E-2,6.383198391E-2,3.768998265E-1,-1.390204757E-1,4.067612249E-1
6.807304167E-2,4.107555706E-2,3.782674903E-1,-1.055200231E-1,3.948518341E-1
7.807704167E-2,7.119387053E-3,3.933562303E-1,-7.477010071E-2,4.004627043E-1
8.808104167E-2,1.660745376E-2,4.082765704E-1,-3.090545833E-2,4.097812988E-1
9.808504167E-2,5.605083366E-2,3.986362660E-1,4.276185751E-2,4.048223622E-1
1.080890417E-1,1.150831534E-1,3.935912883E-1,5.047316551E-2,4.131655539E-1
1.180930417E-1,1.409612306E-1,3.841825336E-1,-3.759057999E-2,4.109493148E-1
1.280970417E-1,1.383787438E-1,3.849742466E-1,-1.415774632E-1,4.328949357E-1
1.381010417E-1,1.048242044E-1,3.679296130E-1,-2.603209645E-1,4.627389312E-1
1.481050417E-1,8.802252263E-3,3.234252852E-1,-3.961564618E-1,5.114893323E-1
1.581090417E-1,-1.378371272E-1,3.168728954E-1,-4.225852919E-1,5.458807877E-1
1.681130417E-1,-3.662586615E-1,2.934694147E-1,-3.586424804E-1,5.906726109E-1
1.781170417E-1,-6.387849943E-1,2.480540907E-1,-2.080415940E-1,7.161413308E-1
1.881210417E-1,-9.329978824E-1,1.518323100E-1,-1.107094270E-1,9.517324604E-1
1.981250417E-1,-1.175860596E0,6.466143429E-2,-2.811633646E-2,1.177972738E0
2.081290417E-1,-1.364708558E0,4.370852172E-2,2.779181600E-2,1.365691132E0
2.181330417E-1,-1.486103480E0,6.706171632E-2,-2.970385551E-3,1.487618785E0
2.281370417E-1,-1.495931187E0,1.331931406E-1,-8.906186521E-2,1.504487469E0
2.381410417E-1,-1.427878953E0,1.971558326E-1,-2.867457014E-1,1.469670651E0
2.481450417E-1,-1.298720098E0,2.267076606E-1,-5.975263828E-1,1.447448802E0
2.581490417E-1,-1.168308040E0,3.008614647E-1,-8.858128256E-1,1.496704934E0
2.681530417E-1,-9.250802408E-1,4.194997162E-1,-1.131587672E0,1.520606498E0
2.781580417E-1,-6.720302890E-1,5.534138185E-1,-1.281556474E0,1.549283241E0
2.881620417E-1,-4.741471358E-1,6.314150906E-1,-1.390018816E0,1.598640933E0
2.981660417E-1,-4.878348099E-1,6.377546418E-1,-1.394068013E0,1.608769533E0
3.081700417E-1,-4.132451688E-1,6.039922339E-1,-1.455591831E0,1.629210167E0
3.181740417E-1,-5.122460581E-1,5.690405023E-1,-1.309299173E0,1.516729192E0
3.281780417E-1,-4.991788468E-1,5.898881650E-1,-1.323637131E0,1.532697890E0
3.381820417E-1,-8.309846538E-1,3.837071550E-1,-7.264896476E-1,1.168569161E0
3.481860417E-1,-8.166045964E-1,4.137051255E-1,-7.467017180E-1,1.181337570E0
3.581900417E-1,-8.894670430E-1,2.008951271E-1,-2.593836558E-1,9.480455440E-1
3.681940417E-1,-8.182834782E-1,1.385667318E-1,-2.740508115E-1,8.740094033E-1
3.781980417E-1,-6.973292177E-1,1.009170949E-1,-5.312382531E-1,8.824207497E-1
3.882020417E-1,-5.489443896E-1,1.461154872E-1,-8.294743180E-1,1.005344380E0
3.982060417E-1,-3.707559378E-1,2.619102377E-1,-9.985459739E-1,1.096882400E0
4.082100417E-1,-2.849800250E-1,3.754163879E-1,-1.089474270E0,1.187057397E0
4.182140417E-1,-2.084231614E-1,4.571639711E-1,-1.146664132E0,1.251909639E0
4.282180417E-1,-1.834456103E-1,5.723219597E-1,-1.213722340E0,1.354373153E0
4.382220417E-1,-2.360291456E-1,7.044035447E-1,-1.292550409E0,1.490832207E0
4.482260417E-1,-3.284101827E-1,8.646786493E-1,-1.355100998E0,1.640677034E0
4.582300417E-1,-4.172386344E-1,1.033290714E0,-1.452595133E0,1.830795018E0
4.682340417E-1,-4.805160693E-1,1.168508161E0,-1.586194071E0,2.027885264E0
4.782380417E-1,-5.475264032E-1,1.243611553E0,-1.705698295E0,2.180770857E0
4.882420417E-1,-6.475919243E-1,1.267903810E0,-1.805907876E0,2.299621410E0
4.982460417E-1,-6.335753444E-1,1.278389622E0,-1.812590659E0,2.306768875E0
5.082500417E-1,-6.530118547E-1,1.236731719E0,-1.843686152E0,2.314110726E0
5.182540417E-1,-6.449856741E-1,1.177532169E0,-1.768883307E0,2.220706347E0
5.282580417E-1,-6.210574789E-1,1.113042058E0,-1.714255110E0,2.136175460E0
5.382620417E-1,-5.646931706E-1,1.030011011E0,-1.712124969E0,2.076336430E0
5.482660417E-1,-4.581286520E-1,9.239957285E-1,-1.668612329E0,1.961610836E0
5.582710417E-1,-3.249322589E-1,8.231733584E-1,-1.591388152E0,1.820909553E0
5.682750417E-1,-1.916264497E-1,7.439874405E-1,-1.616128891E0,1.789444216E0
5.782790417E-1,-1.161049361E-1,7.302336198E-1,-1.752625124E0,1.902213532E0
5.882830417E-1,-4.032241284E-2,7.713354528E-1,-1.838120772E0,1.993808479E0
5.982870417E-1,-2.091851450E-2,8.503056085E-1,-1.816218857E0,2.005519421E0
6.082910417E-1,-8.663243847E-3,9.136347547E-1,-1.736947569E0,1.962597864E0
6.182950417E-1,5.051060596E-2,9.361836648E-1,-1.660444354E0,1.906847301E0
6.282990417E-1,1.669766716E-1,9.314006424E-1,-1.536260603E0,1.804296263E0
6.383030417E-1,2.677854103E-1,9.464809039E-1,-1.303218654E0,1.632762685E0
6.483070417E-1,3.164785007E-1,9.005542409E-1,-1.196566610E0,1.530662678E0
6.583110417E-1,2.919840027E-1,9.680805185E-1,-1.230893859E0,1.592963979E0
6.683150417E-1,3.914560314E-1,1.012888024E0,-1.166196756E0,1.593485127E0
6.783190417E-1,4.229937199E-1,1.153467076E0,-1.052651430E0,1.617864337E0
6.883230417E-1,4.472188074E-1,1.290401849E0,-9.050361317E-1,1.638362596E0
6.983270417E-1,4.329095378E-1,1.364982208E0,-9.401474923E-1,1.713027847E0
7.083310417E-1,5.673523015E-1,1.573944446E0,-2.163773847E-1,1.687011833E0
7.183350417E-1,6.532989530E-1,1.704681464E0,1.280850130E-1,1.830066716E0
7.283390417E-1,7.733512804E-1,1.833961940E0,4.306269675E-1,2.036400792E0
7.383430417E-1,8.641013829E-1,1.949913104E0,6.149341285E-1,2.219679322E0
7.483470417E-1,8.629601526E-1,2.039490108E0,8.275067300E-1,2.364103956E0
7.583510417E-1,7.645293669E-1,2.052335857E0,1.180955713E0,2.488221055E0
7.683550417E-1,5.376491769E-1,1.961776812E0,1.733255637E0,2.672416510E0
7.783590417E-1,1.735273073E-1,1.753879936E0,2.424538030E0,2.997430769E0
7.883632917E-1,-2.839236524E-1,1.397995295E0,3.094240104E0,3.407246000E0
7.983672917E-1,-7.245723456E-1,9.596500030E-1,3.512062254E0,3.712211536E0
8.083712917E-1,-1.127524003E0,5.961353302E-1,3.852950833E0,4.058561055E0
8.183752917E-1,-1.467749362E0,3.086619428E-1,4.070387149E0,4.337927146E0
8.283792917E-1,-1.598398818E0,1.164671803E-1,4.056278987E0,4.361403742E0
8.383832917E-1,-1.331347708E0,5.584222510E-2,3.766139562E0,3.994923312E0
8.483882917E-1,-6.958799122E-1,5.623208821E-2,3.609834132E0,3.676725902E0
8.583922917E-1,-1.305450828E-1,-1.183795121E-1,3.655330732E0,3.659576271E0
8.683962917E-1,2.094631252E-1,-5.438096206E-1,3.494704210E0,3.542959387E0
8.784002917E-1,3.772590648E-1,-9.901395781E-1,2.886837026E0,3.075146956E0
8.884042917E-1,4.598802220E-1,-1.226347941E0,1.998447332E0,2.389395495E0
8.984082917E-1,5.896346882E-1,-1.130859401E0,9.179725116E-1,1.571364242E0
9.084122917E-1,7.723191006E-1,-7.478685299E-1,-3.419182742E-1,1.128136622E0
9.184162917E-1,8.779224466E-1,-2.577341563E-1,-1.500904829E0,1.757808301E0
9.284202917E-1,9.606237106E-1,2.463250691E-1,-2.366424308E0,2.565821108E0
9.384242917E-1,1.051696433E0,7.961491357E-1,-2.863914186E0,3.153081556E0
9.484282917E-1,1.104249453E0,1.306652139E0,-3.089666997E0,3.531677904E0
9.584322917E-1,1.153075166E0,1.680531440E0,-3.261676294E0,3.846075988E0
9.684362917E-1,1.214887544E0,1.896052938E0,-3.243275106E0,3.948392319E0
9.784402917E-1,1.241821428E0,1.957131053E0,-3.145165844E0,3.906987407E0
9.884442917E-1,1.202976474E0,1.879175097E0,-2.909168712E0,3.666294319E0
9.984482917E-1,1.168615603E0,1.914196849E0,-2.910214779E0,3.674120583E0
1.008452292E0,9.347180602E-1,1.109175148E0,-1.455055642E0,2.054544787E0
1.018456292E0,8.295684582E-1,5.516751489E-1,-3.932772928E-1,1.071072512E0
1.028460292E0,8.539089552E-1,4.838804841E-2,6.450040197E-1,1.071229244E0
1.038464292E0,9.570156862E-1,-5.405052128E-1,1.689774572E0,2.015778513E0
1.048468292E0,1.014290625E0,-1.293136592E0,2.621336598E0,3.093928454E0
1.058472292E0,1.023871873E0,-2.192951453E0,3.070131449E0,3.909355036E0
1.068476292E0,1.009892934E0,-2.902497039E0,2.991108668E0,4.288485032E0
1.078480292E0,1.070909361E0,-3.309097797E0,2.566957492E0,4.322759056E0
1.088484292E0,1.117425277E0,-3.422605117E0,2.007824512E0,4.122405161E0
1.098488292E0,1.163523556E0,-3.155404903E0,1.404132825E0,3.644441817E0
1.108492292E0,1.170635085E0,-2.700935914E0,8.723648143E-1,3.070254335E0
1.118496292E0,1.044353646E0,-2.150595977E0,5.030038029E-1,2.443102621E0
1.128500292E0,7.917232320E-1,-1.654724461E0,1.406717294E-1,1.839762826E0
1.138504292E0,5.441442275E-1,-1.253032440E0,-2.436967456E-1,1.387649574E0
1.148508292E0,2.602461201E-1,-8.679245849E-1,-6.778168398E-1,1.131572709E0
1.158512292E0,6.401356280E-2,-4.747847016E-1,-1.158498897E0,1.253649849E0
1.168517292E0,-3.573438138E-2,-1.153227340E-1,-1.608952603E0,1.613475986E0
1.178521292E0,-7.007303238E-2,2.157289284E-1,-1.902398044E0,1.915872522E0
1.188525292E0,-9.946318477E-2,4.423383558E-1,-2.098466295E0,2.146885404E0
1.198529292E0,-1.630803064E-1,5.682882580E-1,-2.172504909E0,2.251516003E0
1.208533292E0,-1.669967714E-1,6.488555807E-1,-2.090621670E0,2.195358844E0
1.218537292E0,-2.369698164E-1,6.266262209E-1,-1.982452859E0,2.092590369E0
1.228541292E0,-2.744925687E-1,2.773692526E-1,-2.066970268E0,2.103484243E0
1.238545292E0,-1.716119787E-1,9.027735516E-2,-1.914466113E0,1.924261201E0
1.248549292E0,-1.252192926E-1,-9.044326991E-3,-1.810023147E0,1.814371920E0
1.258553292E0,-1.163142756E-1,-1.025135310E-1,-1.709877884E0,1.716892662E0
1.268557292E0,-1.158397740E-1,-1.361016919E-1,-1.788546908E0,1.797454469E0
1.278561292E0,-7.331063569E-2,-9.587080166E-2,-1.893202713E0,1.897045643E0
1.288565292E0,-3.135861754E-2,4.775026336E-2,-1.780943774E0,1.781859752E0
1.298569292E0,-2.908024997E-2,5.650456846E-3,-1.770640980E0,1.770888779E0
1.308573292E0,-1.314801988E-1,-1.005092517E-1,-2.096480581E0,2.103002610E0
1.318577292E0,-1.425317287E-1,4.031947553E-2,-2.100926219E0,2.106141479E0
1.328581292E0,-1.085553128E-1,-1.315360397E-2,-2.101514449E0,2.104357444E0
1.338585292E0,-2.291456571E-1,2.974732956E-1,-1.947138600E0,1.983014579E0
1.348589292E0,-3.137010732E-1,4.204706463E-1,-1.818691644E0,1.892839989E0
1.358593292E0,-3.010716721E-1,5.744436219E-1,-1.692583575E0,1.812586214E0
1.368597292E0,-2.674513516E-1,6.510339609E-1,-1.547562101E0,1.700095263E0
1.378601292E0,-2.208376408E-1,7.033802819E-1,-1.420375221E0,1.600305862E0
1.388605292E0,-1.438341960E-1,7.605195656E-1,-1.345492269E0,1.552233143E0
1.398609292E0,-4.283260882E-2,9.052413690E-1,-1.208855118E0,1.510836611E0
1.408613292E0,4.484200448E-2,1.073922723E0,-1.057507542E0,1.507860412E0
1.418617292E0,5.810582846E-2,1.244408821E0,-8.911413932E-1,1.531686189E0
1.428621292E0,1.621353963E-1,1.409634763E0,-5.676652372E-1,1.528267605E0
1.438625292E0,2.698042712E-1,1.578297991E0,-2.431102699E-1,1.619543607E0
1.448629292E0,3.537755504E-1,1.710978623E0,1.260449195E-1,1.751711252E0
1.458633292E0,4.629834124E-1,1.923022636E0,7.123674524E-1,2.102340859E0
1.468637292E0,4.651208621E-1,2.134146590E0,1.562723347E0,2.685707233E0
1.478641292E0,3.291380149E-1,2.378214341E0,2.346768308E0,3.357313923E0
1.488645292E0,2.270289651E-1,2.674915512E0,2.835804867E0,3.904933340E0
1.498649292E0,2.064973444E-1,2.969896432E0,3.035414776E0,4.251666594E0
1.508654292E0,1.016667080E-1,3.129271942E0,3.106570712E0,4.410607736E0
1.518658292E0,-1.515010652E-1,2.955251788E0,3.220425357E0,4.373511767E0
1.528662292E0,-5.069962817E-1,2.432823535E0,3.427837790E0,4.233880902E0
1.538666292E0,-8.529371479E-1,1.641348078E0,3.679844014E0,4.118589232E0
1.548670292E0,-1.020524488E0,8.955949250E-1,4.002672883E0,4.226695010E0
1.558674292E0,-1.122932038E0,2.282026474E-1,4.284903365E0,4.435476260E0
1.568678292E0,-1.162995698E0,-4.030158305E-1,4.470997435E0,4.637326689E0
1.578682292E0,-1.057663078E0,-8.955931708E-1,4.542748618E0,4.749452950E0
1.588686292E0,-1.008539743E0,-9.579296060E-1,4.358018119E0,4.574615117E0
1.598690292E0,-9.314222771E-1,-9.496774305E-1,4.333482617E0,4.533046026E0
1.608694292E0,-5.994454390E-1,-1.550793273E0,3.881503957E0,4.222601991E0
1.618698292E0,-2.124328530E-1,-1.824822888E0,3.088930247E0,3.593966661E0
1.628702292E0,-6.950672954E-2,-1.721294865E0,1.999938957E0,2.639591452E0
1.638706292E0,1.957422683E-1,-1.549695458E0,1.021861746E0,1.866567030E0
1.648710292E0,4.064463919E-1,-1.356786604E0,2.345973086E-1,1.435654714E0
1.658714292E0,4.018846866E-1,-1.541391827E0,2.771931052E-1,1.616859946E0
1.668718292E0,2.730263793E-1,-8.603667663E-1,-1.169960024E0,1.477694432E0
1.678722292E0,1.523053497E-2,-4.941584274E-1,-1.363402875E0,1.450273050E0
1.688726292E0,-2.654907802E-1,-4.642262381E-1,-1.295846484E0,1.401859289E0
1.698730292E0,-6.075835937E-1,-3.621949562E-1,-9.209066445E-1,1.161211461E0
1.708734292E0,-9.886843523E-1,-2.988266337E-1,-4.461951792E-1,1.125115213E0
1.718738292E0,-1.218022090E0,-3.561901581E-1,-1.874716741E-1,1.282807417E0
1.728742292E0,-1.309007543E0,-5.258412731E-1,-1.539104104E-2,1.410761028E0
1.738746292E0,-1.490771458E0,-9.019268748E-1,4.190874875E-2,1.742879219E0
1.748750292E0,-1.642375288E0,-1.303481779E0,-2.871918440E-2,2.096970702E0
1.758754292E0,-1.757675510E0,-1.649835750E0,-1.336112165E-1,2.414380492E0
1.768758292E0,-1.769041036E0,-1.945759242E0,-2.961959714E-1,2.646359247E0
1.778762292E0,-1.654648009E0,-1.877169940E0,-3.770898610E-1,2.530577756E0
1.788766292E0,-1.624860831E0,-1.944817840E0,-7.519677204E-1,2.643472073E0
1.798770292E0,-1.550848529E0,-2.298693085E0,-1.418630412E0,3.114744501E0
1.808774292E0,-1.347622263E0,-2.520776183E0,-2.088855811E0,3.540298989E0
1.818778292E0,-9.425635618E-1,-2.582047402E0,-2.583269470E0,3.772091728E0
1.828782292E0,-3.926478401E-1,-2.399634446E0,-2.816585069E0,3.720963484E0
1.838786292E0,5.822335750E-2,-2.201852377E0,-3.255132675E0,3.930322198E0
1.848790292E0,3.892359897E-1,-2.067076102E0,-3.734953437E0,4.286512037E0
1.858794292E0,6.276013903E-1,-1.888699772E0,-3.902490783E0,4.380696822E0
1.868798292E0,6.679214506E-1,-1.727589393E0,-4.059626518E0,4.462202555E0
1.878802292E0,6.383428717E-1,-1.523560158E0,-4.229609170E0,4.540739027E0
1.888806292E0,5.848222835E-1,-1.268647868E0,-4.350692727E0,4.569465146E0
1.898810292E0,4.698019968E-1,-1.047977750E0,-4.421675586E0,4.568389899E0
1.908814292E0,2.675554320E-1,-8.362866166E-1,-4.350487490E0,4.438209393E0
1.918819292E0,4.878039658E-3,-6.307262886E-1,-4.186711072E0,4.233956666E0
1.928823292E0,-2.424186905E-1,-5.138939497E-1,-4.014788314E0,4.054797038E0
1.938827292E0,-3.755896117E-1,-3.943663368E-1,-3.782916393E0,3.821916901E0
1.948831292E0,-4.446567768E-1,-2.282612658E-1,-3.556343803E0,3.591295602E0
1.958835292E0,-4.973390204E-1,-4.067586333E-2,-3.350731727E0,3.387684125E0
1.968839292E0,-6.056999132E-1,1.864267766E-1,-2.834440126E0,2.904423894E0
1.978843292E0,-8.637843177E-1,4.028541550E-1,-1.927796010E0,2.150537671E0
1.988847292E0,-1.193983018E0,6.169648665E-1,-8.727039528E-1,1.602452271E0
1.998851292E0,-1.075476913E0,6.801183039E-1,-9.280478489E-1,1.574955335E0
2.008855292E0,-1.488672454E0,7.047847831E-1,4.955854404E-1,1.720020986E0
2.018859292E0,-1.375023778E0,6.230985957E-1,5.825844079E-1,1.618130663E0
2.028863292E0,-1.198927423E0,6.763027033E-1,5.311616546E-1,1.475447395E0
2.038867292E0,-9.437534702E-1,7.949500179E-1,5.045848900E-1,1.333124921E0
2.048871292E0,-7.434516893E-1,9.566565210E-1,5.721412808E-1,1.339872292E0
2.058875292E0,-6.951922797E-1,1.136215743E0,7.405954707E-1,1.524060422E0
2.068879292E0,-5.889837469E-1,1.289503132E0,9.677919585E-1,1.716491030E0
2.078883292E0,-4.444373600E-1,1.380885758E0,1.042615854E0,1.786453991E0
2.088887292E0,-2.414908835E-1,1.449618316E0,1.048080077E0,1.805043754E0
2.098891292E0,-2.123178090E-1,1.482118017E0,1.030102227E0,1.817378130E0
2.108895292E0,-9.099817067E-2,1.540008668E0,1.468269179E0,2.129723397E0
2.118899292E0,3.411104813E-2,1.785380934E0,1.832595738E0,2.558741054E0
2.128903292E0,1.609893420E-1,2.102045960E0,2.130182762E0,2.997030762E0
2.138907292E0,4.096640416E-1,2.445221678E0,2.230339134E0,3.334868264E0
2.148911292E0,8.201583879E-1,2.687942524E0,2.024090881E0,3.463327690E0
2.158915292E0,1.355337518E0,2.536283876E0,1.624023217E0,3.302593995E0
2.168919292E0,1.733908917E0,2.021278663E0,1.341863487E0,2.982047147E0
2.178923292E0,2.485858950E0,2.166245757E0,1.558091183E0,3.646884085E0
2.188927292E0,2.869268482E0,2.087887220E0,1.942491233E0,4.045398232E0
2.198931292E0,2.497495494E0,1.739567707E0,2.587288846E0,3.994701881E0
2.208935292E0,1.076840191E0,7.565457979E-1,2.880353048E0,3.166761757E0
2.218939292E0,8.278261341E-2,3.335968092E-1,3.514923881E0,3.531689353E0
2.228943292E0,-4.270850532E-1,3.321028456E-1,4.358388247E0,4.391838118E0
2.238947292E0,-8.358635706E-1,3.983883440E-2,5.032055318E0,5.101160237E0
2.248951292E0,-1.013321449E0,-3.863477576E-1,5.413296118E0,5.520856800E0
2.258955292E0,-7.895366657E-1,-6.141935787E-1,5.361672220E0,5.454184714E0
2.268959292E0,-3.592533317E-1,-4.264886007E-1,5.123091788E0,5.153350847E0
2.278963292E0,-2.819114428E-2,-3.501078844E-2,4.678456646E0,4.678672577E0
2.288967292E0,2.249173893E-1,2.424635679E-1,3.802887558E0,3.817241175E0
2.298971292E0,1.728257876E-1,1.802418843E-1,3.820622748E0,3.828774487E0
2.308975292E0,7.341234800E-1,7.421052217E-1,1.490825399E0,1.819949948E0
2.318979292E0,1.047974754E0,8.293690681E-1,4.182536745E-1,1.400371476E0
2.328983292E0,9.518884090E-1,7.106167960E-1,4.587766331E-1,1.273398513E0
2.338987292E0,1.456932159E0,7.941284841E-1,-9.985746253E-1,1.936605961E0
2.348991292E0,1.484664480E0,7.287490118E-1,-1.425057671E0,2.183138362E0
2.358996292E0,1.383507649E0,7.327464607E-1,-1.554640156E0,2.206335606E0
2.369000292E0,1.171739917E0,7.236692432E-1,-1.440822934E0,1.993148849E0
2.379004292E0,8.524559221E-1,5.735902208E-1,-1.230666987E0,1.603193087E0
2.389008292E0,5.849294338E-1,2.365993953E-1,-8.455623472E-1,1.055034312E0
2.399012292E0,3.635581615E-1,-1.422607103E-1,-2.763826811E-1,4.783304641E-1
2.409016292E0,1.981486168E-1,-5.283272168E-1,2.269473964E-1,6.081921103E-1
2.419020292E0,7.695182478E-2,-8.480956534E-1,6.985621762E-1,1.101443115E0
2.429024292E0,1.828296427E-3,-1.193162361E0,1.021819062E0,1.570908640E0
2.439028292E0,-4.890797552E-2,-1.480757078E0,1.152196183E0,1.876856297E0
2.449032292E0,-3.713314500E-2,-1.764410479E0,1.106826468E0,2.083167790E0
2.459036292E0,3.650793146E-2,-1.998696131E0,8.498436785E-1,2.172177095E0
2.469040292E0,1.205851184E-1,-2.080537270E0,4.233477688E-1,2.126593388E0
2.479044292E0,1.671977329E-1,-2.063936148E0,-7.153015852E-2,2.071932448E0
2.489048292E0,9.837275214E-2,-1.970068164E0,-4.949001467E-1,2.033659736E0
2.499052292E0,-2.808066845E-2,-1.915775597E0,-8.651762474E-1,2.102264160E0
2.509056292E0,-1.103966741E-1,-1.856858760E0,-1.199821170E0,2.213522694E0
2.519060292E0,-1.175117488E-1,-1.794350270E0,-1.573347738E0,2.389335683E0
2.529064292E0,-6.953943741E-2,-1.760280299E0,-1.900459692E0,2.591364410E0
2.539068292E0,2.550098654E-2,-1.744875224E0,-2.146509358E0,2.766359028E0
2.549072292E0,1.244589719E-1,-1.750978548E0,-2.372267430E0,2.951113124E0
2.559076292E0,2.118877098E-1,-1.728512961E0,-2.569239661E0,3.103811510E0
2.569080292E0,3.151280131E-1,-1.657970982E0,-2.681891533E0,3.168708827E0
2.579084292E0,3.777485499E-1,-1.536417893E0,-2.716806427E0,3.143932421E0
2.589088292E0,3.564543061E-1,-1.452584023E0,-2.703849581E0,3.089961582E0
2.599092292E0,3.724703779E-1,-1.530958348E0,-2.646061549E0,3.079644357E0
2.609096292E0,2.630459131E-1,-1.405782909E0,-2.712406982E0,3.066361097E0
2.619100292E0,3.552001880E-1,-1.291736476E0,-2.709501500E0,3.022606272E0
2.629104292E0,4.887236232E-1,-1.177588887E0,-2.651248614E0,2.941884699E0
2.639108292E0,5.879603745E-1,-1.215518020E0,-2.517726275E0,2.856943657E0
2.649112292E0,6.698510318E-1,-1.309617262E0,-2.351008708E0,2.773272386E0
2.659116292E0,6.932875492E-1,-1.329922888E0,-2.333265333E0,2.773710444E0
2.669120292E0,6.613132198E-1,-1.063944157E0,-2.223693774E0,2.552278657E0
2.679124292E0,6.408956198E-1,-7.681270856E-1,-2.255464620E0,2.467364397E0
